descriptor BJD Tc_folded phase mod 
2459467.269832 -0.086774 0.019321     0.000000
2459467.269839 -0.086767 0.019325     0.000000
2459467.269846 -0.086760 0.019330     0.000000
2459467.269852 -0.086754 0.019335     0.000000
2459467.269859 -0.086747 0.019340     0.000000
2459467.269866 -0.086740 0.019344     0.000000
2459467.269872 -0.086734 0.019349     0.000000
2459467.269879 -0.086727 0.019354     0.000000
2459467.269886 -0.086720 0.019359     0.000000
2459467.269892 -0.086714 0.019363     0.000000
2459467.269899 -0.086707 0.019368     0.000000
2459467.269906 -0.086700 0.019373     0.000000
2459467.269912 -0.086694 0.019378     0.000000
2459467.269919 -0.086687 0.019382     0.000000
2459467.269926 -0.086680 0.019387     0.000000
2459467.269932 -0.086674 0.019392     0.000000
2459467.269939 -0.086667 0.019397     0.000000
2459467.269946 -0.086660 0.019401     0.000000
2459467.269952 -0.086654 0.019406     0.000000
2459467.269959 -0.086647 0.019411     0.000000
2459467.269966 -0.086640 0.019416     0.000000
2459467.269972 -0.086634 0.019420     0.000000
2459467.269979 -0.086627 0.019425     0.000000
2459467.269986 -0.086620 0.019430     0.000000
2459467.269992 -0.086614 0.019435     0.000000
2459467.269999 -0.086607 0.019439     0.000000
2459467.270006 -0.086600 0.019444     0.000000
2459467.270012 -0.086594 0.019449     0.000000
2459467.270019 -0.086587 0.019454     0.000000
2459467.270026 -0.086580 0.019459     0.000000
2459467.270032 -0.086574 0.019463     0.000000
2459467.270039 -0.086567 0.019468     0.000000
2459467.270046 -0.086560 0.019473     0.000000
2459467.270052 -0.086554 0.019478     0.000000
2459467.270059 -0.086547 0.019482     0.000000
2459467.270066 -0.086540 0.019487     0.000000
2459467.270072 -0.086534 0.019492     0.000000
2459467.270079 -0.086527 0.019497     0.000000
2459467.270086 -0.086520 0.019501     0.000000
2459467.270092 -0.086514 0.019506     0.000000
2459467.270099 -0.086507 0.019511     0.000000
2459467.270106 -0.086500 0.019516     0.000000
2459467.270112 -0.086494 0.019520     0.000000
2459467.270119 -0.086487 0.019525     0.000000
2459467.270126 -0.086480 0.019530     0.000000
2459467.270132 -0.086474 0.019535     0.000000
2459467.270139 -0.086467 0.019539     0.000000
2459467.270146 -0.086460 0.019544     0.000000
2459467.270152 -0.086454 0.019549     0.000000
2459467.270159 -0.086447 0.019554     0.000000
2459467.270166 -0.086440 0.019558     0.000000
2459467.270172 -0.086434 0.019563     0.000000
2459467.270179 -0.086427 0.019568     0.000000
2459467.270186 -0.086420 0.019573     0.000000
2459467.270192 -0.086414 0.019577     0.000000
2459467.270199 -0.086407 0.019582     0.000000
2459467.270206 -0.086400 0.019587     0.000000
2459467.270212 -0.086394 0.019592     0.000000
2459467.270219 -0.086387 0.019596     0.000000
2459467.270226 -0.086380 0.019601     0.000000
2459467.270232 -0.086374 0.019606     0.000000
2459467.270239 -0.086367 0.019611     0.000000
2459467.270246 -0.086360 0.019616     0.000000
2459467.270252 -0.086354 0.019620     0.000000
2459467.270259 -0.086347 0.019625     0.000000
2459467.270266 -0.086340 0.019630     0.000000
2459467.270272 -0.086334 0.019635     0.000000
2459467.270279 -0.086327 0.019639     0.000000
2459467.270286 -0.086320 0.019644     0.000000
2459467.270292 -0.086314 0.019649     0.000000
2459467.270299 -0.086307 0.019654     0.000000
2459467.270306 -0.086300 0.019658     0.000000
2459467.270312 -0.086294 0.019663     0.000000
2459467.270319 -0.086287 0.019668     0.000000
2459467.270326 -0.086280 0.019673     0.000000
2459467.270332 -0.086274 0.019677     0.000000
2459467.270339 -0.086267 0.019682     0.000000
2459467.270346 -0.086260 0.019687     0.000000
2459467.270352 -0.086254 0.019692     0.000000
2459467.270359 -0.086247 0.019696     0.000000
2459467.270366 -0.086240 0.019701     0.000000
2459467.270372 -0.086234 0.019706     0.000000
2459467.270379 -0.086227 0.019711     0.000000
2459467.270386 -0.086220 0.019715     0.000000
2459467.270392 -0.086214 0.019720     0.000000
2459467.270399 -0.086207 0.019725     0.000000
2459467.270406 -0.086200 0.019730     0.000000
2459467.270412 -0.086194 0.019734     0.000000
2459467.270419 -0.086187 0.019739     0.000000
2459467.270426 -0.086180 0.019744     0.000000
2459467.270432 -0.086174 0.019749     0.000000
2459467.270439 -0.086167 0.019753     0.000000
2459467.270446 -0.086160 0.019758     0.000000
2459467.270452 -0.086154 0.019763     0.000000
2459467.270459 -0.086147 0.019768     0.000000
2459467.270466 -0.086140 0.019773     0.000000
2459467.270472 -0.086134 0.019777     0.000000
2459467.270479 -0.086127 0.019782     0.000000
2459467.270486 -0.086120 0.019787     0.000000
2459467.270492 -0.086114 0.019792     0.000000
2459467.270499 -0.086107 0.019796     0.000000
2459467.270506 -0.086100 0.019801     0.000000
2459467.270512 -0.086094 0.019806     0.000000
2459467.270519 -0.086087 0.019811     0.000000
2459467.270526 -0.086080 0.019815     0.000000
2459467.270532 -0.086074 0.019820     0.000000
2459467.270539 -0.086067 0.019825     0.000000
2459467.270546 -0.086060 0.019830     0.000000
2459467.270552 -0.086054 0.019834     0.000000
2459467.270559 -0.086047 0.019839     0.000000
2459467.270566 -0.086040 0.019844     0.000000
2459467.270572 -0.086034 0.019849     0.000000
2459467.270579 -0.086027 0.019853     0.000000
2459467.270586 -0.086020 0.019858     0.000000
2459467.270592 -0.086014 0.019863     0.000000
2459467.270599 -0.086007 0.019868     0.000000
2459467.270606 -0.086000 0.019872     0.000000
2459467.270612 -0.085994 0.019877     0.000000
2459467.270619 -0.085987 0.019882     0.000000
2459467.270626 -0.085980 0.019887     0.000000
2459467.270632 -0.085974 0.019891     0.000000
2459467.270639 -0.085967 0.019896     0.000000
2459467.270646 -0.085960 0.019901     0.000000
2459467.270652 -0.085954 0.019906     0.000000
2459467.270659 -0.085947 0.019910     0.000000
2459467.270666 -0.085940 0.019915     0.000000
2459467.270672 -0.085934 0.019920     0.000000
2459467.270679 -0.085927 0.019925     0.000000
2459467.270686 -0.085920 0.019930     0.000000
2459467.270692 -0.085914 0.019934     0.000000
2459467.270699 -0.085907 0.019939     0.000000
2459467.270706 -0.085900 0.019944     0.000000
2459467.270712 -0.085894 0.019949     0.000000
2459467.270719 -0.085887 0.019953     0.000000
2459467.270726 -0.085880 0.019958     0.000000
2459467.270732 -0.085874 0.019963     0.000000
2459467.270739 -0.085867 0.019968     0.000000
2459467.270746 -0.085860 0.019972     0.000000
2459467.270752 -0.085854 0.019977     0.000000
2459467.270759 -0.085847 0.019982     0.000000
2459467.270766 -0.085840 0.019987     0.000000
2459467.270772 -0.085834 0.019991     0.000000
2459467.270779 -0.085827 0.019996     0.000000
2459467.270786 -0.085820 0.020001     0.000000
2459467.270792 -0.085814 0.020006     0.000000
2459467.270799 -0.085807 0.020010     0.000000
2459467.270806 -0.085800 0.020015     0.000000
2459467.270812 -0.085794 0.020020     0.000000
2459467.270819 -0.085787 0.020025     0.000000
2459467.270826 -0.085780 0.020029     0.000000
2459467.270832 -0.085774 0.020034     0.000000
2459467.270839 -0.085767 0.020039     0.000000
2459467.270846 -0.085760 0.020044     0.000000
2459467.270852 -0.085754 0.020048     0.000000
2459467.270859 -0.085747 0.020053     0.000000
2459467.270866 -0.085740 0.020058     0.000000
2459467.270872 -0.085734 0.020063     0.000000
2459467.270879 -0.085727 0.020067     0.000000
2459467.270886 -0.085720 0.020072     0.000000
2459467.270892 -0.085714 0.020077     0.000000
2459467.270899 -0.085707 0.020082     0.000000
2459467.270906 -0.085700 0.020087     0.000000
2459467.270912 -0.085694 0.020091     0.000000
2459467.270919 -0.085687 0.020096     0.000000
2459467.270926 -0.085680 0.020101     0.000000
2459467.270932 -0.085674 0.020106     0.000000
2459467.270939 -0.085667 0.020110     0.000000
2459467.270946 -0.085660 0.020115     0.000000
2459467.270952 -0.085654 0.020120     0.000000
2459467.270959 -0.085647 0.020125     0.000000
2459467.270966 -0.085640 0.020129     0.000000
2459467.270972 -0.085634 0.020134     0.000000
2459467.270979 -0.085627 0.020139     0.000000
2459467.270986 -0.085620 0.020144     0.000000
2459467.270992 -0.085614 0.020148     0.000000
2459467.270999 -0.085607 0.020153     0.000000
2459467.271006 -0.085600 0.020158     0.000000
2459467.271012 -0.085594 0.020163     0.000000
2459467.271019 -0.085587 0.020167     0.000000
2459467.271026 -0.085580 0.020172     0.000000
2459467.271032 -0.085574 0.020177     0.000000
2459467.271039 -0.085567 0.020182     0.000000
2459467.271046 -0.085560 0.020186     0.000000
2459467.271052 -0.085554 0.020191     0.000000
2459467.271059 -0.085547 0.020196     0.000000
2459467.271066 -0.085540 0.020201     0.000000
2459467.271072 -0.085534 0.020205     0.000000
2459467.271079 -0.085527 0.020210     0.000000
2459467.271086 -0.085520 0.020215     0.000000
2459467.271092 -0.085514 0.020220     0.000000
2459467.271099 -0.085507 0.020224     0.000000
2459467.271106 -0.085500 0.020229     0.000000
2459467.271112 -0.085494 0.020234     0.000000
2459467.271119 -0.085487 0.020239     0.000000
2459467.271126 -0.085480 0.020243     0.000000
2459467.271132 -0.085474 0.020248     0.000000
2459467.271139 -0.085467 0.020253     0.000000
2459467.271146 -0.085460 0.020258     0.000000
2459467.271152 -0.085454 0.020263     0.000000
2459467.271159 -0.085447 0.020267     0.000000
2459467.271166 -0.085440 0.020272     0.000000
2459467.271172 -0.085434 0.020277     0.000000
2459467.271179 -0.085427 0.020282     0.000000
2459467.271186 -0.085420 0.020286     0.000000
2459467.271192 -0.085414 0.020291     0.000000
2459467.271199 -0.085407 0.020296     0.000000
2459467.271206 -0.085400 0.020301     0.000000
2459467.271212 -0.085394 0.020305     0.000000
2459467.271219 -0.085387 0.020310     0.000000
2459467.271226 -0.085380 0.020315     0.000000
2459467.271232 -0.085374 0.020320     0.000000
2459467.271239 -0.085367 0.020324     0.000000
2459467.271246 -0.085360 0.020329     0.000000
2459467.271252 -0.085354 0.020334     0.000000
2459467.271259 -0.085347 0.020339     0.000000
2459467.271266 -0.085340 0.020343     0.000000
2459467.271272 -0.085334 0.020348     0.000000
2459467.271279 -0.085327 0.020353     0.000000
2459467.271286 -0.085320 0.020358     0.000000
2459467.271292 -0.085314 0.020362     0.000000
2459467.271299 -0.085307 0.020367     0.000000
2459467.271306 -0.085300 0.020372     0.000000
2459467.271312 -0.085294 0.020377     0.000000
2459467.271319 -0.085287 0.020381     0.000000
2459467.271326 -0.085280 0.020386     0.000000
2459467.271332 -0.085274 0.020391     0.000000
2459467.271339 -0.085267 0.020396     0.000000
2459467.271346 -0.085260 0.020400     0.000000
2459467.271352 -0.085254 0.020405     0.000000
2459467.271359 -0.085247 0.020410     0.000000
2459467.271366 -0.085240 0.020415     0.000000
2459467.271372 -0.085234 0.020420     0.000000
2459467.271379 -0.085227 0.020424     0.000000
2459467.271386 -0.085220 0.020429     0.000000
2459467.271392 -0.085214 0.020434     0.000000
2459467.271399 -0.085207 0.020439     0.000000
2459467.271406 -0.085200 0.020443     0.000000
2459467.271412 -0.085194 0.020448     0.000000
2459467.271419 -0.085187 0.020453     0.000000
2459467.271426 -0.085180 0.020458     0.000000
2459467.271432 -0.085174 0.020462     0.000000
2459467.271439 -0.085167 0.020467     0.000000
2459467.271446 -0.085160 0.020472     0.000000
2459467.271452 -0.085154 0.020477     0.000000
2459467.271459 -0.085147 0.020481     0.000000
2459467.271466 -0.085140 0.020486     0.000000
2459467.271472 -0.085134 0.020491     0.000000
2459467.271479 -0.085127 0.020496     0.000000
2459467.271486 -0.085120 0.020500     0.000000
2459467.271492 -0.085114 0.020505     0.000000
2459467.271499 -0.085107 0.020510     0.000000
2459467.271506 -0.085100 0.020515     0.000000
2459467.271512 -0.085094 0.020519     0.000000
2459467.271519 -0.085087 0.020524     0.000000
2459467.271526 -0.085080 0.020529     0.000000
2459467.271532 -0.085074 0.020534     0.000000
2459467.271539 -0.085067 0.020538     0.000000
2459467.271546 -0.085060 0.020543     0.000000
2459467.271552 -0.085054 0.020548     0.000000
2459467.271559 -0.085047 0.020553     0.000000
2459467.271566 -0.085040 0.020557     0.000000
2459467.271572 -0.085034 0.020562     0.000000
2459467.271579 -0.085027 0.020567     0.000000
2459467.271586 -0.085020 0.020572     0.000000
2459467.271592 -0.085014 0.020577     0.000000
2459467.271599 -0.085007 0.020581     0.000000
2459467.271606 -0.085000 0.020586     0.000000
2459467.271612 -0.084994 0.020591     0.000000
2459467.271619 -0.084987 0.020596     0.000000
2459467.271626 -0.084980 0.020600     0.000000
2459467.271632 -0.084974 0.020605     0.000000
2459467.271639 -0.084967 0.020610     0.000000
2459467.271646 -0.084960 0.020615     0.000000
2459467.271652 -0.084954 0.020619     0.000000
2459467.271659 -0.084947 0.020624     0.000000
2459467.271666 -0.084940 0.020629     0.000000
2459467.271672 -0.084934 0.020634     0.000000
2459467.271679 -0.084927 0.020638     0.000000
2459467.271686 -0.084920 0.020643     0.000000
2459467.271692 -0.084914 0.020648     0.000000
2459467.271699 -0.084907 0.020653     0.000000
2459467.271706 -0.084900 0.020657     0.000000
2459467.271712 -0.084894 0.020662     0.000000
2459467.271719 -0.084887 0.020667     0.000000
2459467.271726 -0.084880 0.020672     0.000000
2459467.271732 -0.084874 0.020676     0.000000
2459467.271739 -0.084867 0.020681     0.000000
2459467.271746 -0.084860 0.020686     0.000000
2459467.271752 -0.084854 0.020691     0.000000
2459467.271759 -0.084847 0.020695     0.000000
2459467.271766 -0.084840 0.020700     0.000000
2459467.271772 -0.084834 0.020705     0.000000
2459467.271779 -0.084827 0.020710     0.000000
2459467.271786 -0.084820 0.020714     0.000000
2459467.271792 -0.084814 0.020719     0.000000
2459467.271799 -0.084807 0.020724     0.000000
2459467.271806 -0.084800 0.020729     0.000000
2459467.271812 -0.084794 0.020734     0.000000
2459467.271819 -0.084787 0.020738     0.000000
2459467.271826 -0.084780 0.020743     0.000000
2459467.271832 -0.084774 0.020748     0.000000
2459467.271839 -0.084767 0.020753     0.000000
2459467.271846 -0.084760 0.020757     0.000000
2459467.271852 -0.084754 0.020762     0.000000
2459467.271859 -0.084747 0.020767     0.000000
2459467.271866 -0.084740 0.020772     0.000000
2459467.271872 -0.084734 0.020776     0.000000
2459467.271879 -0.084727 0.020781     0.000000
2459467.271886 -0.084720 0.020786     0.000000
2459467.271892 -0.084714 0.020791     0.000000
2459467.271899 -0.084707 0.020795     0.000000
2459467.271906 -0.084700 0.020800     0.000000
2459467.271912 -0.084694 0.020805     0.000000
2459467.271919 -0.084687 0.020810     0.000000
2459467.271926 -0.084680 0.020814     0.000000
2459467.271932 -0.084674 0.020819     0.000000
2459467.271939 -0.084667 0.020824     0.000000
2459467.271946 -0.084660 0.020829     0.000000
2459467.271952 -0.084654 0.020833     0.000000
2459467.271959 -0.084647 0.020838     0.000000
2459467.271966 -0.084640 0.020843     0.000000
2459467.271972 -0.084634 0.020848     0.000000
2459467.271979 -0.084627 0.020852     0.000000
2459467.271986 -0.084620 0.020857     0.000000
2459467.271992 -0.084614 0.020862     0.000000
2459467.271999 -0.084607 0.020867     0.000000
2459467.272006 -0.084600 0.020871     0.000000
2459467.272012 -0.084594 0.020876     0.000000
2459467.272019 -0.084587 0.020881     0.000000
2459467.272026 -0.084580 0.020886     0.000000
2459467.272032 -0.084574 0.020890     0.000000
2459467.272039 -0.084567 0.020895     0.000000
2459467.272046 -0.084560 0.020900     0.000000
2459467.272052 -0.084554 0.020905     0.000000
2459467.272059 -0.084547 0.020910     0.000000
2459467.272066 -0.084540 0.020914     0.000000
2459467.272072 -0.084534 0.020919     0.000000
2459467.272079 -0.084527 0.020924     0.000000
2459467.272086 -0.084520 0.020929     0.000000
2459467.272092 -0.084514 0.020933     0.000000
2459467.272099 -0.084507 0.020938     0.000000
2459467.272106 -0.084500 0.020943     0.000000
2459467.272112 -0.084494 0.020948     0.000000
2459467.272119 -0.084487 0.020952     0.000000
2459467.272126 -0.084480 0.020957     0.000000
2459467.272132 -0.084474 0.020962     0.000000
2459467.272139 -0.084467 0.020967     0.000000
2459467.272146 -0.084460 0.020971     0.000000
2459467.272152 -0.084454 0.020976     0.000000
2459467.272159 -0.084447 0.020981     0.000000
2459467.272166 -0.084440 0.020986     0.000000
2459467.272172 -0.084434 0.020990     0.000000
2459467.272179 -0.084427 0.020995     0.000000
2459467.272186 -0.084420 0.021000     0.000000
2459467.272192 -0.084414 0.021005     0.000000
2459467.272199 -0.084407 0.021009     0.000000
2459467.272206 -0.084400 0.021014     0.000000
2459467.272212 -0.084394 0.021019     0.000000
2459467.272219 -0.084387 0.021024     0.000000
2459467.272226 -0.084380 0.021028     0.000000
2459467.272232 -0.084374 0.021033     0.000000
2459467.272239 -0.084367 0.021038     0.000000
2459467.272246 -0.084360 0.021043     0.000000
2459467.272252 -0.084354 0.021047     0.000000
2459467.272259 -0.084347 0.021052     0.000000
2459467.272266 -0.084340 0.021057     0.000000
2459467.272272 -0.084334 0.021062     0.000000
2459467.272279 -0.084327 0.021067     0.000000
2459467.272286 -0.084320 0.021071     0.000000
2459467.272292 -0.084314 0.021076     0.000000
2459467.272299 -0.084307 0.021081     0.000000
2459467.272306 -0.084300 0.021086     0.000000
2459467.272312 -0.084294 0.021090     0.000000
2459467.272319 -0.084287 0.021095     0.000000
2459467.272326 -0.084280 0.021100     0.000000
2459467.272332 -0.084274 0.021105     0.000000
2459467.272339 -0.084267 0.021109     0.000000
2459467.272346 -0.084260 0.021114     0.000000
2459467.272352 -0.084254 0.021119     0.000000
2459467.272359 -0.084247 0.021124     0.000000
2459467.272366 -0.084240 0.021128     0.000000
2459467.272372 -0.084234 0.021133     0.000000
2459467.272379 -0.084227 0.021138     0.000000
2459467.272386 -0.084220 0.021143     0.000000
2459467.272392 -0.084214 0.021147     0.000000
2459467.272399 -0.084207 0.021152     0.000000
2459467.272406 -0.084200 0.021157     0.000000
2459467.272412 -0.084194 0.021162     0.000000
2459467.272419 -0.084187 0.021166     0.000000
2459467.272426 -0.084180 0.021171     0.000000
2459467.272432 -0.084174 0.021176     0.000000
2459467.272439 -0.084167 0.021181     0.000000
2459467.272446 -0.084160 0.021185     0.000000
2459467.272452 -0.084154 0.021190     0.000000
2459467.272459 -0.084147 0.021195     0.000000
2459467.272466 -0.084140 0.021200     0.000000
2459467.272472 -0.084134 0.021204     0.000000
2459467.272479 -0.084127 0.021209     0.000000
2459467.272486 -0.084120 0.021214     0.000000
2459467.272492 -0.084114 0.021219     0.000000
2459467.272499 -0.084107 0.021224     0.000000
2459467.272506 -0.084100 0.021228     0.000000
2459467.272512 -0.084094 0.021233     0.000000
2459467.272519 -0.084087 0.021238     0.000000
2459467.272526 -0.084080 0.021243     0.000000
2459467.272532 -0.084074 0.021247     0.000000
2459467.272539 -0.084067 0.021252     0.000000
2459467.272546 -0.084060 0.021257     0.000000
2459467.272552 -0.084054 0.021262     0.000000
2459467.272559 -0.084047 0.021266     0.000000
2459467.272566 -0.084040 0.021271     0.000000
2459467.272572 -0.084034 0.021276     0.000000
2459467.272579 -0.084027 0.021281     0.000000
2459467.272586 -0.084020 0.021285     0.000000
2459467.272592 -0.084014 0.021290     0.000000
2459467.272599 -0.084007 0.021295     0.000000
2459467.272606 -0.084000 0.021300     0.000000
2459467.272612 -0.083994 0.021304     0.000000
2459467.272619 -0.083987 0.021309     0.000000
2459467.272626 -0.083980 0.021314     0.000000
2459467.272632 -0.083974 0.021319     0.000000
2459467.272639 -0.083967 0.021323     0.000000
2459467.272646 -0.083960 0.021328     0.000000
2459467.272652 -0.083954 0.021333     0.000000
